time,flux,flux_err
1472.116932655983,1089915.9,27.065825
1472.1373659307137,1110890.0,27.30213
1472.1577990057995,1152272.1,27.75509
1472.178232281236,1192543.6,28.212261
1472.1986654568973,1219813.4,28.508396
1472.219098532798,1225728.6,28.573887
1472.2395318090494,1226544.2,28.589468
1472.259964985642,1227268.0,28.595049
1472.2803980625904,1228001.5,28.603857
1472.3008313397731,1229165.1,28.612074
1472.321264517297,1230002.0,28.630705
1472.3416976950612,1230705.6,28.63587
1472.3621308731745,1231286.8,28.640676
1472.3825640516297,1231732.4,28.640472
1472.402997330326,1231873.0,28.650259
1472.4234304093698,1231728.5,28.661068
1472.4438635887564,1231736.2,28.6576
1472.4642968683838,1231399.6,28.657152
1472.4847300483525,1230862.2,28.654615
1472.5051631285605,1230354.2,28.640364
1472.5255964091193,1229565.8,28.63744
1472.5460295900266,1228765.0,28.627947
1472.5664627711594,1227906.0,28.620752
1472.5868959526488,1227038.4,28.615328
1472.60732913448,1226100.4,28.599947
1472.6277623165515,1225090.5,28.59218
1472.6481954989722,1224456.5,28.595844
1472.6686286817421,1223784.9,28.586102
1472.6890618647376,1213394.1,28.473051
1472.7094950479732,1181423.0,28.128538
1472.7299281316737,1139176.0,27.64131
1472.7503614156012,1101591.8,27.217136
1472.7707945998845,1091608.4,27.094446
1472.7912278843942,1119093.8,27.42784
1472.8116609692588,1161789.9,27.91116
1472.832094154357,1200175.4,28.332212
1472.8525274399144,1221786.6,28.56663
1472.8729605257104,1224151.8,28.604603
1472.89339371174,1224769.2,28.604755
1472.9138269981122,1225386.5,28.616343
1472.9342600848395,1226081.5,28.623508
1472.9751265592204,1227592.1,28.644352
1472.9955597467633,1228052.2,28.658089
1473.015992934772,1228686.6,28.660954
1473.036426123006,1229006.1,28.65809
1473.0568593114804,1229405.2,28.668615
1473.0772925004203,1229557.4,28.668144
1473.0977256894694,1229239.6,28.665083
1473.1181588789914,1229078.9,28.658497
1473.138592168747,1229174.0,28.658394
1473.159025258843,1228624.5,28.659763
1473.1794585492971,1228045.2,28.658508
1473.1998917399833,1227583.0,28.649593
1473.2203248310107,1226899.1,28.649733
1473.2407581222797,1226276.9,28.632893
1473.2611913138971,1225510.5,28.63385
1473.2816244058558,1224958.1,28.624376
1473.3020576981726,1224147.9,28.620466
1473.3224908907214,1223005.6,28.615269
1473.342923983495,1207306.1,28.4333
1473.363357276743,1171853.8,28.03861
1473.3837903702224,1129352.8,27.554087
1473.4042236639289,1096188.8,27.177073
1473.4246568581075,1096524.6,27.179394
1473.4450899525182,1130332.8,27.562714
1473.465523247156,1172866.4,28.04502
1473.4859564421495,1208353.9,28.453161
1473.5063896374922,1224413.6,28.62475
1473.526822833177,1225566.0,28.639622
1473.5472560291018,1226392.2,28.652384
1473.5676893253694,1227300.5,28.657877
1473.588122421992,1228495.4,28.67368
1473.6085556188482,1229381.0,28.680218
1473.6494221134853,1230771.8,28.701271
1473.669855211272,1231451.0,28.702417
1473.6902885094023,1231623.2,28.709885
1473.7107217078883,1231988.6,28.709991
1473.7311548066064,1232027.1,28.709644
1473.7515881056752,1231769.0,28.712536
1473.7720213049688,1231338.0,28.70454
1473.792454504619,1230924.6,28.700546
1473.812887704611,1229999.1,28.694574
1473.8333209049597,1229032.5,28.675102
1473.853754205542,1228268.9,28.667841
1473.8741873063555,1227303.1,28.668089
1473.8946205076281,1226501.5,28.65707
1473.915053709141,1225586.6,28.651962
1473.9354869109957,1224708.6,28.640226
1473.9559202130913,1224011.5,28.627378
1473.9763533155347,1221224.5,28.593143
1473.9967865183207,1199170.4,28.355848
1474.0172198213477,1160871.2,27.922565
1474.0376529247224,1118480.5,27.447805
1474.0580861284398,1091356.9,27.133913
1474.0785194325144,1101774.8,27.255732
1474.0989525368204,1140052.1,27.696346
1474.1193857414692,1182210.6,28.169926
1474.1398190463588,1213903.1,28.520372
1474.160252151596,1224186.2,28.640379
1474.1806854571769,1224687.8,28.637575
1474.201118662997,1225313.2,28.649687
1474.2215518691664,1226144.9,28.65877
1474.2419850756778,1226750.6,28.66408
1474.2624182824293,1227053.0,28.669538
1474.2828514896464,1227665.1,28.679264
1474.3032847969735,1228378.2,28.67929
1474.323717904772,1228779.9,28.689209
1474.3441512128047,1229260.2,28.696241
1474.3645844211787,1229541.4,28.697691
1474.385017529792,1229442.9,28.701815
1474.405450838749,1229494.0,28.694374
1474.4258840480616,1229403.1,28.69409
1474.4463171577227,1228816.4,28.690832
1474.466750467618,1228340.1,28.684362
1474.4871836778548,1227637.0,28.68015
1474.5076167883308,1226849.0,28.670364
1474.5280500991503,1226287.0,28.661785
1474.5484833103255,1225628.8,28.653206
1474.56891652185,1224748.5,28.649136
1474.5893497336074,1224185.6,28.643099
1474.6097829457067,1223737.6,28.637995
1474.6302161581625,1218009.8,28.570076
1474.650649370844,1191055.9,28.273695
1474.6710825838818,1150709.4,27.823027
1474.6915157971525,1109941.2,27.359127
1474.711949010889,1090632.5,27.138594
1474.7323823248516,1110561.6,27.369394
1474.752815439053,1151653.8,27.83182
1474.7732486537134,1191960.8,28.287529
1474.7936819686147,1219255.2,28.58755
1474.8141150837473,1225109.0,28.655148
1474.8345482993464,1226006.9,28.66657
1474.8549816151717,1226882.5,28.676344
1474.8754148313528,1227804.5,28.683086
1474.8958479477587,1228531.2,28.692112
1474.9162812645227,1229491.9,28.704256
1474.9367144816351,1230584.6,28.718151
1474.9571476990895,1231014.0,28.718666
1474.977580916784,1231579.6,28.731129
1474.9980141348278,1232233.0,28.732718
1475.018447453098,1232062.1,28.729357
1475.038880571723,1231809.6,28.72703
1475.059313790698,1231539.2,28.719475
1475.079747110016,1231057.9,28.719154
1475.1001802295723,1230273.6,28.7147
1475.1206135494795,1229481.2,28.707832
1475.1410467697278,1228775.1,28.696432
1475.1614798902156,1228009.2,28.690475
1475.181913211054,1227067.4,28.680666
1475.2023464322338,1226060.9,28.667074
1475.2227795537692,1225033.4,28.653841
1475.243212875539,1224320.9,28.64733
1475.2636459976493,1223569.2,28.639652
1475.2840792200004,1213223.2,28.522099
1475.3045125427016,1181561.9,28.171282
1475.3249456657431,1139301.0,27.697233
1475.3453789891428,1101300.8,27.267088
1475.3658122127745,1091403.5,27.153465
1475.3862454367481,1118886.0,27.468422
1475.4066786610783,1161427.0,27.95058
1475.4271118856414,1200093.8,28.382765
1475.4475451105463,1221368.1,28.616539
1475.4679783358079,1224103.0,28.648973
1475.4884115614186,1224878.5,28.65257
1475.5088448872557,1225457.9,28.661903
1475.5292781134485,1226031.5,28.67191
1475.5497112398734,1226740.5,28.676434
1475.5701445667582,1227431.8,28.686193
1475.590577793766,1228173.9,28.694788
1475.6110109212386,1228678.5,28.7048
1475.6314442490548,1229399.2,28.709229
1475.6518774771102,1229739.9,28.714432
1475.6723106053978,1229796.2,28.712267
1475.6927439341453,1229570.4,28.714746
1475.713177163132,1229532.2,28.715124
1475.7336104924616,1229121.9,28.708809
1475.7540436220297,1228772.4,28.702646
1475.7744768520643,1228063.1,28.69713
1475.794910182325,1227303.6,28.684965
1475.8153433128246,1227067.9,28.684992
1475.8357765437904,1226073.6,28.671055
1475.8562097749818,1224898.1,28.66032
1475.8766430065298,1224230.5,28.653341
1475.8970762383105,1223459.4,28.647182
1475.9175094704406,1222293.4,28.634745
1475.9379427029126,1206727.2,28.463503
1475.9583760357418,1171560.9,28.070091
1475.9788091687951,1128937.1,27.58797
1475.9992424022057,1095581.5,27.20601
1476.0196757359663,1096088.8,27.21304
1476.0401088699582,1129792.0,27.597565
1476.0605421044093,1172557.9,28.083387
1476.0809754389848,1208230.8,28.480536
1476.1014086740179,1224192.0,28.653017
1476.121841909291,1225431.9,28.669476
1476.1422751449136,1226696.5,28.682686
1476.162708380878,1227268.2,28.689224
1476.1831417170833,1228146.2,28.702538
1476.2035748537528,1229231.5,28.710077
1476.2240080905322,1229937.4,28.717848
1476.2444414277852,1230681.2,28.725584
1476.2648745652696,1231412.6,28.732224
1476.2853078030967,1231496.5,28.73322
1476.305741141281,1231586.8,28.739454
1476.3261742796967,1231662.4,28.738033
1476.346607618456,1231342.9,28.735346
1476.3670408575708,1231124.9,28.733633
1476.3874739970342,1230413.6,28.723694
1476.4079073367247,1229582.4,28.713377
1476.428340576771,1228826.6,28.706888
1476.4487737171657,1228071.5,28.700945
1476.4692070577876,1227215.4,28.686941
1476.4896402987652,1226432.0,28.680828
1476.510073540092,1225363.9,28.670868
1476.5305067817608,1224647.0,28.66352
1476.5509400236697,1224008.2,28.65945
1476.5713732659278,1221107.2,28.623268
1476.591806508528,1199223.6,28.378077
1476.6326729945577,1118383.9,27.468868
1476.653106238089,1091203.6,27.158966
1476.673539481977,1101298.4,27.27367
1476.6939728260913,1139237.5,27.708315
1476.7144059705606,1181487.9,28.186016
1476.7348393153807,1213058.6,28.537472
1476.7552725604255,1223245.4,28.649706
1476.7757057059425,1223873.5,28.65635
1476.796139051694,1224669.5,28.66725
1476.81657229767,1225451.0,28.676268
1476.8370054441184,1226273.5,28.683807
1476.857438790801,1226984.6,28.693527
1476.8778720377086,1227523.6,28.700148
1476.8983053850898,1228424.0,28.706886
1476.9187385327023,1228842.4,28.71206
1476.9391717806575,1229065.8,28.716488
1476.95960512897,1229425.4,28.71543
1476.9800382775138,1229684.8,28.72235
1477.0004715265168,1229648.0,28.722101
1477.0209048757606,1229386.1,28.719723
1477.0413380252357,1228648.2,28.708738
1477.06177127517,1228285.5,28.706692
1477.0822046253452,1227756.2,28.700499
1477.1026377757516,1226682.4,28.685787
1477.123071126618,1226138.2,28.683857
1477.1435043777237,1225569.1,28.67673
1477.1639376291787,1224655.9,28.667177
1477.1843708809756,1223845.0,28.658607
1477.2048040331283,1223201.5,28.652468
1477.2252372855146,1217693.9,28.58556
1477.2456706382436,1190677.0,28.287163
1477.266103891212,1150268.8,27.833303
1477.286537144646,1109629.4,27.374035
1477.3069703983056,1090130.0,27.085653
1488.6883411562449,1229094.5,28.636751
1488.7087746931502,1228772.0,28.673546
1488.7292080304032,1228249.2,28.670874
1488.7496415678834,1227888.4,28.675278
1488.7700750058357,1227221.0,28.66797
1488.7905083440128,1226379.6,28.663961
1488.810941882548,1225780.6,28.657194
1488.8313753214316,1225101.9,28.64734
1488.8518086606637,1224197.1,28.638723
1488.8722422002393,1223957.6,28.640306
1488.8926756401706,1223070.6,28.641954
1488.9131089803268,1207368.1,28.46551
1488.9335425209574,1172354.6,28.085037
1488.95397596182,1129770.2,27.60249
1488.9744095030255,1095477.0,27.205961
1488.994842844586,1094758.8,27.193535
1489.0152762864964,1128575.5,27.589203
1489.0357097287488,1171069.9,28.069952
1489.0561431713577,1206782.6,28.465666
1489.0765766143159,1223348.4,28.647999
1489.0970100574996,1224355.0,28.67465
1489.1174435011562,1225270.9,28.673359
1489.1378770450465,1225994.6,28.685623
1489.1583104893944,1226503.4,28.689405
1489.1787438339816,1227363.0,28.704409
1489.1991773789196,1228186.9,28.707048
1489.2196108241988,1228673.8,28.71263
1489.2400441697173,1229229.6,28.72101
1489.260477715703,1229718.4,28.725273
1489.28091116203,1229811.8,28.73354
1489.3013445085962,1230071.9,28.730625
1489.3217780555133,1229926.2,28.72768
1489.342211502888,1229666.0,28.726973
1489.3626450505035,1229299.4,28.718962
1489.3830783984668,1228798.5,28.719954
1489.4035118467727,1228138.2,28.709381
1489.423945395436,1227408.9,28.692665
1489.4443787443306,1226499.4,28.684553
1489.4648121936843,1225738.4,28.688124
1489.485245743279,1224987.6,28.676119
1489.5056790933377,1224270.0,28.675882
1489.5261125436227,1223575.0,28.649042
1489.546546094265,1220835.4,28.63413
1489.5669794452551,1199811.5,28.39647
1489.5874129965887,1161480.4,27.97212
1489.607846448278,1118972.4,27.492785
1489.6282799003093,1091038.2,27.165628
1489.6487133525807,1100614.9,27.28211
1489.6691468053177,1138118.1,27.706053
1489.6895802582876,1179988.0,28.188337
1489.7100137115995,1211936.6,28.524311
1489.7304471653842,1222483.2,28.645128
1489.7508806193946,1223018.1,28.657307
1489.7713140737615,1223731.0,28.662277
1489.8121809834265,1225458.0,28.688265
1489.8326144388338,1226531.8,28.697441
1489.8530478945977,1227332.2,28.705652
1489.8734814505879,1227738.6,28.714523
1489.893914806933,1228297.6,28.714798
1489.9143482637446,1228942.8,28.724503
1489.9347818207825,1229213.6,28.72044
1489.9552151781754,1229164.8,28.727442
1489.975648735919,1229210.9,28.721416
1489.9960821938876,1229312.2,28.728296
1490.0165155523282,1228825.6,28.722887
1490.0369491111196,1228188.8,28.719967
1490.0573825701358,1227803.8,28.706186
1490.0778159295078,1227054.9,28.699024
1490.098249489347,1226211.9,28.69868
1490.1186829494109,1225417.1,28.68603
1490.139116509832,1224668.4,28.6758
1490.159549870601,1223974.4,28.667671
1490.1799833317127,1223405.6,28.661205
1490.2004168931817,1218006.0,28.601564
1490.220850254882,1191382.4,28.309778
1490.2412837170414,1151046.9,27.862078
1490.2617172794417,1109589.0,27.391165
1490.2821507423068,1089688.8,27.156214
1490.3025841053968,1109060.0,27.37929
1490.323017568844,1149587.8,27.849215
1490.343451132634,1190508.6,28.291286
1490.3638845967798,1218356.4,28.608938
1490.3843180612748,1224239.9,28.662546
1490.404751426002,1225468.8,28.681826
1490.4251849911889,1225997.8,28.69395
1490.4456184566152,1226501.6,28.705513
1490.4660518225064,1227396.0,28.712646
1490.4864853886247,1228094.4,28.714865
1490.5069188550988,1228687.9,28.714651
1490.5273522220377,1229492.2,28.731253
1490.5477857890874,1230074.2,28.737158
1490.5682192566092,1230403.8,28.739824
1490.5886528244737,1230677.6,28.751991
1490.6090861926932,1230568.9,28.73923
1490.6295196611463,1230150.4,28.738785
1490.6499532300586,1230197.5,28.735851
1490.6703865992095,1229845.0,28.727812
1490.6908200688267,1228929.9,28.728771
1490.7112536386703,1228429.1,28.724236
1490.731687008869,1227757.0,28.714836
1490.7521205794183,1226879.5,28.713305
1490.7725540503088,1226223.1,28.703264
1490.7929874214387,1225090.9,28.680845
1490.8134209930358,1224096.0,28.671087
1490.8338544649741,1223591.9,28.668646
1490.8542879371525,1213518.1,28.556265
1490.8747214097966,1181895.0,28.20549
1490.8951548826662,1140144.5,27.743155
1490.9155883558924,1101587.4,27.300583
1490.9360218294678,1090166.9,27.158867
1490.9564553033852,1117434.5,27.478916
1490.976888777659,1159341.6,27.956594
1490.9973222522822,1197644.6,28.387808
1491.0177557271309,1220014.4,28.62834
1491.0381893024532,1222891.1,28.661613
1491.058622678007,1223421.2,28.657923
1491.0790561540198,1224154.1,28.67648
1491.0994897302735,1224973.1,28.687866
1491.119923106875,1225825.6,28.694199
1491.1403566838198,1226608.4,28.697943
1491.1607901611205,1227452.1,28.712852
1491.1812235387697,1228310.1,28.720573
1491.2016571167624,1228592.0,28.719488
1491.2220905951108,1229062.2,28.730288
1491.2425239736913,1229426.2,28.72479
1491.2629575527317,1229337.5,28.724796
1491.2833910320114,1229391.1,28.728636
1491.3038244116397,1229467.1,28.732204
1491.3242579917278,1229085.6,28.722267
1491.3446914720553,1228543.4,28.721611
1491.3651250527328,1227974.0,28.721796
1491.3855584337507,1227458.8,28.710476
1491.4059919150095,1226708.2,28.706314
1491.4264254967275,1226041.9,28.69019
1491.4468588788004,1225370.0,28.691805
1491.467292361107,1224532.1,28.676702
1491.48772594388,1223155.4,28.661709
1491.5081594268777,1207809.4,28.494837
1491.528592910232,1172587.6,28.106453
1491.5490263939282,1129718.8,27.624317
1491.569459877981,1095334.8,27.224754
1491.589893362383,1094477.4,27.217402
1491.6103268471343,1128285.0,27.605743
1491.6307603322275,1171176.5,28.088266
1491.6511938175609,1206785.9,28.482903
1491.6716273033526,1222910.6,28.656336
1491.6920606893837,1224493.0,28.676811
1491.712494275882,1225269.2,28.688818
1491.7329277626122,1225984.2,28.69661
1491.7533613496853,1226714.1,28.704245
1491.7737947371133,1227506.8,28.718285
1491.7942282248841,1228219.9,28.715141
1491.8146618130122,1228604.0,28.721914
1491.835095201488,1229376.2,28.72969
1491.8555286901974,1229895.2,28.738281
1491.875962279366,1230402.6,28.740236
1491.896395668773,1230578.9,28.741596
1491.9168291586393,1230330.8,28.741796
1491.9372627487464,1230312.8,28.741346
1491.9576961392013,1229902.0,28.734863
1491.9781297299996,1229388.6,28.727638
1491.9985632211537,1229063.1,28.725397
1492.018996712657,1228347.5,28.717916
1492.0394302045024,1227570.1,28.712317
1492.0598636967043,1226891.1,28.707848
1492.080297189139,1225781.5,28.697351
1492.100730682032,1225272.2,28.694218
1492.1211641751652,1224479.8,28.674902
1492.1415977687648,1221765.2,28.652138
1492.1620312625892,1200391.1,28.41124
1492.1824646567693,1162098.6,27.983553
1492.2028982513002,1119527.6,27.508015
1492.2233317461723,1091126.5,27.178978
1492.2437651414002,1100311.4,27.283764
1492.2641987369789,1137874.6,27.71888
1492.2846322327823,1180147.9,28.188538
1492.305065629058,1212249.9,28.539213
1492.3254992256843,1222707.6,28.664354
1492.3459326225347,1223256.5,28.661676
1492.3663662197432,1223988.9,28.675915
1492.3867997173002,1224636.8,28.68068
1492.4072331153147,1225358.9,28.690624
1492.427666713571,1226470.4,28.70418
1492.4481002121756,1227058.0,28.713902
1492.4685336110051,1227528.9,28.71198
1492.488967210309,1228332.2,28.720373
1492.5094007099615,1228930.8,28.730175
1492.5298343098402,1229408.6,28.734303
1492.5502677101904,1229603.9,28.732464
1492.5707012107741,1229433.5,28.735006
1492.5911348117006,1229336.8,28.729645
1492.6115682130985,1229302.6,28.735014
1492.6320017147227,1228716.0,28.72958
1492.6524353167042,1228057.8,28.720291
1492.6728687190334,1227592.5,28.712898
1492.6933022215962,1226867.2,28.709583
1492.7137358246182,1226176.4,28.700504
1492.734169327996,1225677.2,28.690542
1492.7546028315992,1224862.6,28.685635
1492.7954698399844,1219172.6,28.624521
1492.8159034446362,1192313.6,28.32755
1492.8363368497594,1151617.8,27.872364
1492.8567703551162,1110059.9,27.400877
1492.877203860815,1089612.0,27.165802
1492.8976373668702,1108842.1,27.387316
1492.918070973159,1149651.2,27.85056
1492.9385043799048,1190562.9,28.313494
1492.9589378870078,1218197.5,28.61518
1492.9793714943444,1224133.1,28.676878
1492.9998049021378,1224948.0,28.688587
1493.0202384101722,1225722.4,28.698515
1493.0406720185565,1226649.9,28.709417
1493.0611054273977,1227086.2,28.716032
1493.0815389364798,1227828.8,28.72013
1493.1019725457954,1228694.6,28.731276
1493.122405955568,1229161.1,28.7332
1493.1428395656985,1229577.2,28.737886
1493.1632730761776,1230092.6,28.744719
1493.1837065869986,1230048.9,28.75079
1493.2041400980597,1230012.8,28.745085
1493.2245736095865,1229971.8,28.744516
1493.2450071213389,1229716.0,28.740957
1493.2654406334477,1229268.8,28.735092
1493.2858741459058,1228979.8,28.73578
1493.3063077587067,1228454.5,28.730991
1493.3267412718633,1227760.0,28.721947
1493.3471746853684,1227078.2,28.71587
1493.367608299217,1226136.5,28.701004
1493.3880418134213,1225216.0,28.691675
1493.4084752279741,1224494.9,28.68776
1493.428908842754,1223999.4,28.682423
1493.4493423578897,1213594.8,28.570604
1493.4697757734903,1182398.9,28.224545
1493.490209389318,1140649.9,27.750927
1493.5106429055013,1101920.2,27.314167
1493.531076422034,1090661.1,27.17941
1493.5515099389086,1117622.2,27.485538
1493.5719434561397,1159827.2,27.969786
1493.5923769737128,1197971.4,28.396997
1493.6128104916424,1220287.5,28.639538
1493.6332439098042,1223261.4,28.671442
1493.653677528433,1223905.9,28.674614
1493.6741110472867,1224620.0,28.689653
1493.694544666614,1225533.4,28.697342
1493.7149780861655,1226090.2,28.703703
1493.7354116060742,1226724.1,28.710901
1493.755845226333,1227660.2,28.721148
1493.7762786469393,1228143.4,28.726784
1493.7967121678885,1228537.1,28.729965
1493.817145789195,1229039.2,28.72663
1493.8375792108418,1229004.4,28.733063
1493.858012732846,1229109.4,28.736574
1493.8784463550837,1229477.8,28.739346
1493.898879877779,1228978.6,28.733847
1493.9193134007146,1228471.0,28.728416
1493.9397469239993,1228217.9,28.725004
1493.9601804477425,1227641.1,28.72354
1493.9806139717257,1226911.8,28.712044
1494.0010474960582,1226388.6,28.70178
1494.0214810207326,1225641.0,28.697552
1494.0419146457643,1224906.5,28.688616
1494.0623480710274,1224673.4,28.69
1494.0827816967503,1223718.1,28.6785
1494.103215222829,1207642.5,28.501715
1494.1236486491398,1172747.4,28.11192
1494.1440822759105,1129800.4,27.627895
