time,flux,flux_err
1472.117094757683,330922.97,15.307546
1472.13752803253,335808.44,15.41459
1472.1579611077323,336388.22,15.429801
1472.1783943831688,336797.8,15.436022
1472.19882755883,337129.06,15.445623
1472.2192606348472,337571.94,15.45425
1472.2396939110986,338116.53,15.470416
1472.2601270876912,338658.78,15.477442
1472.2805601645232,339195.03,15.484368
1472.300993441706,339707.62,15.501845
1472.3214266191135,340305.75,15.511625
1472.3418597967611,340766.0,15.526319
1472.362292974758,341339.97,15.539586
1472.3827261530969,341890.75,15.544033
1472.4031594315602,342259.47,15.564741
1472.4235925104877,342644.94,15.570789
1472.4440256896414,342949.84,15.584076
1472.464458969036,343197.3,15.587647
1472.4848921486555,343471.22,15.58908
1472.5053252286307,343601.5,15.591313
1472.5257585089566,343888.7,15.605989
1472.5461916895147,344123.75,15.606853
1472.5666248702983,344192.9,15.607625
1472.5870580514384,344239.44,15.608972
1472.607491232804,344084.2,15.611469
1472.6279244145262,343742.97,15.605782
1472.6483575964812,343398.22,15.608125
1472.6687907787855,342969.0,15.60039
1472.6892239613153,342713.3,15.595381
1472.7096571440852,342395.38,15.589294
1472.7300902272036,342059.2,15.579456
1472.7505235106655,341813.53,15.577529
1472.7709566943668,341543.28,15.561162
1472.7913899782943,341195.03,15.5510435
1472.8118230625769,340847.38,15.545157
1472.832256247093,340389.94,15.536777
1472.852689531952,339940.12,15.526857
1472.8731226170494,339519.5,15.519771
1472.8935558023804,338996.16,15.510837
1472.9139890880542,338565.88,15.504616
1472.934422174083,338140.94,15.498675
1472.975288646834,337552.97,15.488082
1472.9957218336785,337240.47,15.476374
1473.0161550207558,335861.84,15.448291
1473.036588208175,333018.6,15.381417
1473.0570213959509,330190.0,15.314314
1473.077454583843,328357.6,15.26785
1473.0978877720772,327990.16,15.259359
1473.118320960668,327943.06,15.257235
1473.1387542494922,327908.53,15.257923
1473.159187338657,328002.53,15.260724
1473.1796206280633,329075.8,15.285178
1473.2000538177017,331743.22,15.348337
1473.2204869076813,334906.34,15.424012
1473.2409201979026,336800.8,15.472594
1473.2613533884723,337055.22,15.479923
1473.2817864793833,337281.94,15.487468
1473.3022197704195,337547.66,15.4948015
1473.3226529619205,337820.56,15.501761
1473.34308605353,338262.56,15.506157
1473.3635193454975,338614.88,15.516133
1473.3839524378127,339060.4,15.528613
1473.404385730355,339446.25,15.533744
1473.424818923253,339765.66,15.542173
1473.4452520163832,340106.06,15.5539055
1473.4656853097404,340488.6,15.561156
1473.4861185034533,340842.9,15.568315
1473.5065516975155,341223.2,15.583206
1473.5269848918033,341543.62,15.589659
1473.5474180863312,341959.97,15.599986
1473.5678513812018,342262.5,15.60877
1473.588284476311,342432.0,15.614205
1473.6087176717701,342650.7,15.618864
1473.649584163497,343100.2,15.628667
1473.6700172597702,343372.1,15.633717
1473.690450556387,343470.66,15.632735
1473.7108837532433,343556.97,15.633038
1473.731316850448,343565.8,15.635108
1473.751750147887,343333.75,15.629868
1473.7721833455507,343134.9,15.626375
1473.7926165436875,342871.38,15.622008
1473.8130497419334,342611.03,15.619021
1473.8334829405358,342401.12,15.6007
1473.8539162394882,342112.94,15.60053
1473.874349338672,341756.5,15.593999
1473.894782538082,341330.7,15.581835
1473.9152157378485,340847.66,15.567229
1473.9356489378406,340308.53,15.555774
1473.95608223819,339874.78,15.54704
1473.9765153387707,339326.44,15.534922
1473.9969485396941,338957.9,15.525741
1474.0173818409748,338538.53,15.517942
1474.0378149423705,338142.78,15.507205
1474.0582481442252,337656.56,15.500059
1474.0786814462044,337168.34,15.486601
1474.0991145486478,336788.75,15.483382
1474.119547751201,333926.66,15.410554
1474.139981054228,325677.16,15.220544
1474.1604141573698,315470.0,14.978001
1474.1808474608551,306486.94,14.754813
1474.2012806646962,302268.7,14.656024
1474.2217138687702,301288.0,14.6305895
1474.242147073186,301406.03,14.633886
1474.262580277842,303059.34,14.67905
1474.2830134828473,309331.03,14.829428
1474.3034467880789,319311.78,15.068616
1474.323879893549,329227.38,15.300698
1474.34431319937,335926.53,15.457869
1474.364746405532,337173.5,15.485885
1474.3851795119335,337583.78,15.493142
1474.405612818562,337932.25,15.504872
1474.4260460255464,338372.0,15.514571
1474.4464791328792,338975.28,15.526445
1474.4669124404463,339424.28,15.5405245
1474.4873456482383,339997.2,15.551453
1474.507778756386,340551.1,15.564928
1474.5282120648772,341120.62,15.576596
1474.5486452736077,341531.03,15.588619
1474.569078482571,341948.1,15.600423
1474.5895116918837,342397.88,15.608836
1474.6099449014218,342807.84,15.62042
1474.6303781113165,343160.66,15.63009
1474.6508113215532,343482.62,15.643587
1474.67124453203,343750.12,15.647335
1474.6916777427396,344144.34,15.655843
1474.7121109537984,344421.84,15.659271
1474.7325442650836,344624.2,15.66468
1474.7529773767237,344724.0,15.664813
1474.7734105887066,344778.88,15.665164
1474.7938439009304,344852.8,15.666583
1474.8142770133854,344693.2,15.664512
1474.8347102261905,344495.16,15.660408
1474.855143539222,344289.62,15.6557865
1474.875576752609,344083.3,15.652018
1474.8960098663374,343675.9,15.64283
1474.916443180191,343407.6,15.636007
1474.9368763945095,342980.3,15.628172
1474.9573096090535,342584.75,15.618593
1474.9777428238376,342272.97,15.610182
1474.998176038971,341982.7,15.602086
1475.0186093543307,341574.12,15.593439
1475.0390424700454,341230.47,15.580247
1475.05947568611,340899.47,15.575333
1475.0799090022847,340503.62,15.560223
1475.1003421189307,340018.12,15.553632
1475.120775435811,339580.4,15.546263
1475.1412086529162,339048.3,15.539602
1475.1616417703772,338668.84,15.5297365
1475.1820750880725,338297.2,15.524086
1475.202508306109,338047.4,15.517705
1475.2229414245012,337384.12,15.496575
1475.2433747431278,334820.5,15.438446
1475.2638078619784,331929.2,15.363981
1475.2842410811863,329733.12,15.315973
1475.3046744007443,329042.0,15.298921
1475.3251075205262,328969.2,15.297604
1475.3455408405498,328982.03,15.296793
1475.3659740609219,329055.34,15.297558
1475.3864072815195,329639.16,15.311518
1475.4068405024736,331620.78,15.357032
1475.427273723777,334766.78,15.434043
1475.447706945306,337242.78,15.489621
1475.4681401671915,337901.88,15.505122
1475.4885733893097,338062.94,15.510958
1475.5090067116544,338350.03,15.5216465
1475.5294399343547,338668.62,15.527231
1475.5498730574036,339068.75,15.53402
1475.5703063806795,339376.97,15.541732
1475.5907396043112,339754.78,15.549361
1475.611172728175,340156.25,15.559832
1475.6316060522659,340583.7,15.5704155
1475.6520392767125,340997.0,15.582689
1475.6724724015075,341464.75,15.594075
1475.6929057265297,341978.5,15.604214
1475.7133389519076,342430.97,15.615891
1475.733772277512,342887.34,15.623073
1475.7542054034711,343219.56,15.627913
1475.774638629664,343558.25,15.635839
1475.7950719561995,343902.34,15.643866
1475.8155050829737,344173.2,15.649151
1475.8359383100978,344495.88,15.655014
1475.8563715374476,344602.1,15.658113
1475.8768047651538,344825.6,15.660809
1475.8972379932093,344951.6,15.664603
1475.9176712214976,344982.6,15.66201
1475.9381044500115,344857.7,15.665247
1475.9585377788826,344556.0,15.658988
1475.9789709079778,344362.06,15.656758
1475.9994041374302,344022.7,15.653549
1476.0198374672327,343721.1,15.646959
1476.0402705972665,343343.3,15.637004
1476.0607038275266,343009.5,15.628863
1476.081137158144,342698.06,15.619327
1476.1015703891026,342356.0,15.612907
1476.1220036203013,341871.84,15.600006
1476.1424368518492,341476.97,15.592911
1476.1628700836227,340977.28,15.581853
1476.1833034157535,340565.44,15.567676
1476.2037365481156,340064.53,15.555785
1476.2241697808204,339686.5,15.545343
1476.244603113766,339274.03,15.533544
1476.2650362470595,338898.3,15.526588
1476.2854694805792,338494.7,15.515154
1476.3059028144562,338214.53,15.508151
1476.3263359485645,336929.7,15.480403
1476.3467692830163,330238.12,15.327491
1476.367202517824,320275.9,15.087012
1476.3876356528635,310479.53,14.851746
1476.4080689881303,304375.62,14.705263
1476.4285022237527,302850.12,14.664441
1476.4489353597237,302731.1,14.660853
1476.4693686959217,303807.97,14.682804
1476.4898019323591,307959.0,14.785536
1476.5102351692622,317027.56,15.009619
1476.5306684062743,327312.1,15.251815
1476.5511016437595,335564.34,15.449829
1476.571534881361,338363.25,15.509898
1476.591968119421,338804.66,15.519699
1476.6328345962538,339728.47,15.538061
1476.6532678351286,340256.34,15.5546875
1476.6737010742436,340731.3,15.567781
1476.6941344137012,341252.5,15.581784
1476.714567553514,341739.44,15.591701
1476.735000893561,342199.16,15.597648
1476.7554341338328,342719.1,15.612071
1476.7758672745767,343323.88,15.624192
1476.7963006154387,343937.25,15.636374
1476.8167338566418,344376.1,15.644707
1476.8371669982007,344801.06,15.653933
1476.857600339994,345223.4,15.663347
1476.8780335821284,345546.34,15.671179
1476.8984669246202,345755.56,15.676855
1476.9189000673432,346015.0,15.683691
1476.9393333102926,346138.7,15.6865635
1476.9597666535992,346301.6,15.688407
1476.9801997972536,346393.0,15.691115
1477.0006330411343,346510.97,15.693226
1477.0210663852558,346491.1,15.689425
1477.0414995297251,346362.1,15.687121
1477.0619327745371,346102.34,15.678633
1477.08236611959,345854.06,15.67844
1477.1027992649906,345589.84,15.671721
1477.1232326106183,345168.94,15.66349
1477.1436658566017,344884.72,15.654748
1477.1640991029344,344470.75,15.647769
1477.1845323494927,344135.66,15.639591
1477.2049654962902,343740.6,15.628626
1477.2253987434378,343444.75,15.619567
1477.2458320909282,343169.78,15.608013
1477.2662653386578,342864.75,15.602969
1477.2866985867367,342523.8,15.589189
1477.3071318350412,342408.1,15.551711
1488.6884963158664,337818.2,15.412369
1488.7089298355422,340964.4,15.504729
1488.7293631556822,343764.2,15.565308
1488.7497966760493,344651.06,15.590356
1488.7702300967721,344830.38,15.598722
1488.7906634177198,345070.44,15.611779
1488.8110969391419,345306.66,15.621111
1488.831530360796,345603.47,15.629057
1488.8519636826823,345975.22,15.63849
1488.8723972050284,346374.16,15.645492
1488.8928306276139,346736.34,15.6588335
1488.9132639505406,347124.28,15.674942
1488.933697473709,347467.5,15.681342
1488.9541308972257,347812.06,15.697392
1488.9745644210852,348252.88,15.708192
1488.9949977452998,348552.47,15.716135
1489.015431169748,348877.53,15.726242
1489.035864594538,349253.4,15.733684
1489.0562980196846,349576.78,15.743829
1489.0767314451805,349947.9,15.752129
1489.097164870902,350180.25,15.755895
1489.1175982969798,350333.3,15.765859
1489.1380318232914,350470.34,15.766813
1489.1584652500605,350452.75,15.772595
1489.178898577069,350386.06,15.77328
1489.1993321044283,350320.12,15.777576
1489.2197655320124,350203.44,15.77187
1489.2401988599522,350042.9,15.766612
1489.2606323882428,349914.62,15.765161
1489.2810658168746,349678.7,15.759882
1489.3014991457458,349406.28,15.7556305
1489.3219326749677,348928.1,15.748343
1489.3423661045308,348478.22,15.740389
1489.3627996344512,347938.28,15.726407
1489.383232964603,347433.25,15.715756
1489.4036663950974,346891.84,15.707808
1489.4240999258327,346419.62,15.698879
1489.4445332570322,345919.78,15.687764
1489.464966688458,345415.25,15.674744
1489.4854002201246,345047.4,15.665251
1489.5058335522554,344467.16,15.651573
1489.5262669846124,344060.3,15.6408615
1489.5467005173268,343582.88,15.633018
1489.567133850389,343044.53,15.623582
1489.587567383678,342629.25,15.615418
1489.608000817323,341227.4,15.589163
1489.62843425131,335281.88,15.4436
1489.648867685537,325334.84,15.216625
1489.6693011202296,315051.12,14.967775
1489.6897345551552,308304.97,14.804385
1489.7101679903062,306346.88,14.757314
1489.7306014259302,305986.84,14.752551
1489.7510348617798,306756.34,14.769995
1489.7714682978694,310492.4,14.863074
1489.812335171213,329834.53,15.328642
1489.832768608343,338484.72,15.532089
1489.8532020458297,341869.62,15.607394
1489.8736355835426,342260.84,15.616946
1489.8940689216106,342640.78,15.632107
1489.9145023600286,343087.2,15.644973
1489.9349358987893,343497.38,15.650066
1489.9553692377885,343961.72,15.659027
1489.9758027771386,344605.94,15.672029
1489.9962362168299,345167.16,15.684557
1490.0166695567605,345790.6,15.696587
1490.0371030970418,346341.3,15.706226
1490.0575365376644,346840.53,15.720196
1490.0779698786428,347387.3,15.730274
1490.0984034198555,347829.47,15.738555
1490.1188368614094,348272.16,15.749199
1490.1392704033206,348623.56,15.760307
1490.159703745463,348944.34,15.773472
1490.1801371879483,349251.53,15.7789545
1490.2005707307908,349547.62,15.788102
1490.221004073981,349693.34,15.789272
1490.2414375173976,349802.44,15.789799
1490.2618710611714,349882.5,15.795035
1490.2823045052937,349824.03,15.793912
1490.3027378497572,349665.38,15.795001
1490.3231712944616,349438.6,15.790521
1490.3436048395088,349266.12,15.785622
1490.3640382847952,349052.22,15.784997
1490.3844717305474,348794.44,15.7732725
1490.4049050765316,348625.22,15.771996
1490.4253386228593,348388.0,15.755636
1490.4457720694263,347955.22,15.749613
1490.4662054164583,347578.44,15.740534
1490.4866389637173,347170.56,15.733023
1490.5070724112156,346701.06,15.722815
1490.527505759179,346203.5,15.714306
1490.5479393073692,345686.44,15.7047
1490.5683727559153,345173.03,15.693472
1490.5888063046878,344677.28,15.687789
1490.6092396539316,344341.3,15.680228
1490.629673103409,343972.28,15.670528
1490.6501066532292,343743.53,15.664979
1490.670540003288,343525.6,15.657125
1490.6909734536966,343372.9,15.652441
1490.7114070044481,343031.44,15.648224
1490.7318403555546,341147.97,15.596912
1490.7522739070118,338058.12,15.530024
1490.7727073586939,335228.84,15.464604
1490.7931407106153,333730.25,15.428836
1490.8135742630038,333516.78,15.422925
1490.8340077156172,333474.28,15.423628
1490.854441168587,333492.34,15.419024
1490.8748746219062,333698.4,15.42774
1490.8953080755673,335067.88,15.46288
1490.9157415294685,337888.25,15.528481
1490.936174983719,340925.12,15.602903
1490.956608438195,342423.47,15.641174
1490.977041893144,342628.03,15.646613
1490.9974753483257,342882.94,15.652593
1491.0179088038494,343223.78,15.661757
1491.038342359614,343521.7,15.664615
1491.0587757158428,343867.75,15.674198
1491.0792091722979,344295.25,15.688009
1491.0996427289938,344691.0,15.692738
1491.1200760861539,344956.12,15.698448
1491.140509643541,345441.06,15.708981
1491.160943101284,345730.16,15.718816
1491.1813764593753,346077.78,15.727658
1491.2018100176938,346426.0,15.739438
1491.222243476368,346750.72,15.746683
1491.2426768353907,347057.1,15.753462
1491.263110394757,347456.22,15.761993
1491.2835438543625,347783.2,15.771531
1491.3039772143165,348121.3,15.779174
1491.324410774614,348386.1,15.783035
1491.344844235151,348624.38,15.786515
1491.3652777960378,348733.2,15.79223
1491.3857111572652,348778.0,15.795592
1491.4061446188498,348689.62,15.796869
1491.4265781806607,348689.8,15.794951
1491.4470115428267,348512.4,15.793507
1491.4674450053426,348355.28,15.784808
1491.4878785682085,348100.62,15.784516
1491.5083120312993,347804.53,15.778019
1491.5287454947465,347527.38,15.770325
1491.5491789585358,347181.0,15.760576
1491.5696124225651,346892.62,15.751226
1491.5900458870601,346391.16,15.73782
1491.610479351788,345855.72,15.730017
1491.6309128167413,345263.66,15.716953
1491.6513462821677,344640.25,15.707683
1491.6717797478195,344069.03,15.693679
1491.6922131138272,343542.25,15.682852
1491.7126466800692,342980.12,15.672586
1491.733080146776,342566.6,15.659208
1491.7535137137093,342216.22,15.649321
1491.773947080881,341864.5,15.643908
1491.794380548512,341444.6,15.628088
1491.8148141163838,340975.03,15.6215315
1491.8352474846033,337017.4,15.532168
1491.8556809531729,327809.97,15.317678
1491.8761145219687,317264.8,15.065239
1491.896547891236,308704.3,14.861785
1491.9169813607296,305390.97,14.776009
1491.937414930464,304646.03,14.759629
1491.9578483006626,304935.1,14.767758
1491.9782818710883,307083.12,14.825213
1491.9987153417533,314377.03,15.005533
1492.019148812884,324707.2,15.25418
1492.0395822842402,334420.84,15.479699
1492.060015755953,340082.0,15.611575
1492.080449228015,340900.16,15.628117
1492.1008827004189,341357.38,15.63588
1492.121316173063,341873.7,15.644687
1492.141749746057,342291.38,15.657177
1492.1621832193923,342866.56,15.669263
1492.182616592967,343401.4,15.68388
1492.2030501668924,343877.34,15.693967
1492.223483641159,344467.88,15.7064495
1492.2439170157813,344993.03,15.721842
1492.264350590638,345479.66,15.73008
1492.284784065836,345950.9,15.74389
1492.3052174413897,346309.22,15.753893
1492.3256510172941,346744.38,15.765745
1492.3460843934226,347170.2,15.77888
1492.3665179699092,347613.3,15.785556
1492.3869514467442,347930.88,15.791609
1492.407384823804,348216.75,15.797258
1492.4278184012219,348398.62,15.802763
1492.4482518789882,348496.03,15.80498
1492.4686852570958,348506.12,15.806468
1492.489118835445,348501.1,15.80937
1492.509552314259,348525.8,15.810085
1492.5299858932995,348376.56,15.803404
1492.5504192725784,348367.66,15.806336
1492.5708527523238,348201.72,15.800748
1492.5912863322956,347969.75,15.796593
1492.6117197126223,347711.4,15.788719
1492.6321531931753,347314.88,15.78137
1492.6525867740856,346917.9,15.770912
1492.67302015546,346443.12,15.764161
1492.6934536369517,346049.84,15.75144
1492.7138872189025,345622.5,15.741798
1492.7343207010927,345230.22,15.735173
1492.7547541836248,344859.2,15.723617
1492.7956211496348,344148.6,15.709461
1492.8160547332154,343758.47,15.694996
1492.8364881170346,343412.78,15.68494
1492.8569216010874,343068.47,15.67546
1492.8773550855985,342730.4,15.668056
1492.8977885703498,342450.9,15.661957
1492.918222155451,342259.2,15.659989
1492.9386555407764,341099.06,15.634528
1492.9590890265754,338253.94,15.569921
1492.979522612608,335305.8,15.504768
1492.999955998981,333235.56,15.458141
1493.020389485595,332690.47,15.445878
1493.0408230725589,332670.3,15.442962
1493.0612564599796,332790.0,15.444889
1493.0816899475249,333000.1,15.448318
1493.1021235355365,333965.5,15.464309
1493.1225569237722,336496.56,15.519283
1493.142990512366,339652.94,15.594115
1493.1634240013082,341926.88,15.648556
1493.183857490476,342245.25,15.655445
1493.2042909800002,342486.38,15.659687
1493.2247244698738,342723.16,15.667932
1493.2451579600893,342971.4,15.675319
1493.2655914506613,343325.97,15.684411
1493.2860249414662,343631.16,15.688443
1493.3064585326138,343977.6,15.694327
1493.3268920240007,344283.0,15.705468
1493.3473254158525,344614.8,15.71876
1493.3677590079315,344978.94,15.728815
1493.3881925003661,345366.2,15.737718
1493.4086258930329,345816.5,15.7451725
1493.4290594861595,346245.62,15.754465
1493.4494929795255,346744.97,15.768618
1493.46992637324,347103.12,15.775293
1493.4903599671816,347484.6,15.785082
1493.510793461479,347788.66,15.793025
1493.5312269561255,348114.75,15.796943
1493.551660451114,348346.06,15.801407
1493.572093946459,348443.72,15.803819
1493.5925274420297,348570.28,15.806692
1493.6129609379568,348562.84,15.809405
1493.6333943342324,348521.03,15.807262
1493.6538279307424,348309.62,15.807403
1493.6742614275936,348108.9,15.802618
1493.694695024802,347789.56,15.798589
1493.715128422351,347468.53,15.797336
1493.7355619201408,347066.7,15.784596
1493.7559955182805,346710.03,15.778162
1493.776428916768,346245.72,15.76973
1493.7968624155983,345871.66,15.757762
1493.8172960146694,345458.47,15.739961
1493.8377294141974,345047.4,15.732035
1493.8581629138498,344595.06,15.717894
1493.8785965139687,344109.16,15.7080765
1493.8990300143123,343570.06,15.695839
1493.9194635151289,343062.84,15.686194
1493.9398970160619,342460.0,15.675279
1493.9603305174533,342045.1,15.662594
1493.9807640190847,341610.4,15.654594
1494.0011975210655,341221.2,15.647346
1494.0216310233882,340860.66,15.640369
1494.0420646260682,338710.56,15.589386
1494.0624980289795,330777.2,15.40647
1494.0829316322342,320255.5,15.162739
1494.1033651358448,310557.6,14.930404
1494.1237985396874,305419.06,14.806274
1494.14423214399,304236.53,14.777138
1494.1646655484146,304273.56,14.777303
1494.1850990533057,305698.75,14.806803
